N,energy,lnPI,energystd,lnPIstd
0,-2.3122651666666667e-10,-274.67636318545385,6.689238360193988e-10,0.037092307087640365
1,-0.0006057402333333332,-270.00616621878714,6.709197666659334e-10,0.03683797097706708
2,-0.030574223333333334,-266.01910495212053,9.649146611661053e-06,0.03696447428346385
3,-0.089928316,-262.42771348545386,0.0001387472078025413,0.037746391500313385
4,-0.1784570533333333,-259.1144302854538,3.3152449884326804e-05,0.03809721387875822
5,-0.29619201333333334,-256.0144703187872,1.3487910636322294e-05,0.03845757460933292
6,-0.4433856033333334,-253.08701265212048,0.0001485088146654427,0.03875026495733959
7,-0.61986996,-250.30452828545384,0.00019494455288618896,0.03882366920351991
8,-0.82529224,-247.64554941878717,0.0009179971418800646,0.038885905938144096
9,-1.0595203333333332,-245.09439481878715,0.0012085905896262689,0.03858416805479005
10,-1.3227353,-242.63953575212048,0.0009388071527210208,0.03855154809930988
11,-1.6155368666666667,-240.2701488854538,0.00044015652140257035,0.038487503416086005
12,-1.9372591666666665,-237.97822185212047,0.0006423335685867639,0.03805371113759594
13,-2.288255,-235.75718598545384,0.0004632514328091962,0.038103808547760444
14,-2.6684735333333336,-233.60047838545378,0.0007966472828883598,0.03816122541878678
15,-3.077078566666667,-231.50394131878718,0.001133228972155946,0.03821767496497304
16,-3.514453766666667,-229.46223928545382,0.001330216378388672,0.038171693005303396
17,-3.9807494333333335,-227.47147081878714,0.0015294668657195487,0.03845131587308648
18,-4.475787466666667,-225.52907721878714,0.0020705591426797396,0.03870396450870887
19,-4.9991291,-223.6314190521205,0.002409503847267974,0.03865074662877922
20,-5.5522415,-221.7755164854538,0.003270831482972126,0.038755429762071254
21,-6.1340492666666675,-219.95907795212048,0.002813180494268709,0.03896548927402735
22,-6.743188866666666,-218.1806537854538,0.0027315065336431005,0.03874003722021394
23,-7.381283933333333,-216.4371432854538,0.002391318009662389,0.0381317052212791
24,-8.048738466666666,-214.72651221878715,0.003170877268727314,0.03782415388663091
25,-8.744092066666665,-213.0478187521205,0.004635000431860154,0.03787645305073644
26,-9.466727766666667,-211.39894458545385,0.005180442129135488,0.037873599164900684
27,-10.218698000000002,-209.77873678545384,0.004896122547485812,0.03789232807105335
28,-11.001528666666667,-208.18610935212047,0.004452269346449323,0.03794551032484612
29,-11.812685000000002,-206.61931291878713,0.004586619779313943,0.03801440576925241
30,-12.647264333333332,-205.07789121878713,0.002654545974990566,0.037994532000810294
31,-13.510800999999999,-203.56015628545381,0.0017514334129506734,0.0385310402110397
32,-14.401879333333333,-202.06512551878717,0.003431243700661691,0.038272228125247165
33,-15.322137666666668,-200.59213801878713,0.004472238850211649,0.03819043512294073
34,-16.271691666666666,-199.13976568545382,0.00394022617794255,0.03821616813670897
35,-17.25085866666667,-197.70811321878713,0.0016814042742083408,0.03894538622110248
36,-18.254097333333334,-196.2960165521205,0.0036682767525570118,0.039233013422680214
37,-19.287715000000002,-194.90269598545382,0.002720692375114126,0.03871781695308123
38,-20.34878266666667,-193.52657595212045,0.0023519745605216076,0.03822242859346381
39,-21.435801333333334,-192.16798731878717,0.0033009741491468597,0.03782665790840573
40,-22.550063000000005,-190.82582271878715,0.0030327616127875743,0.03754398032454933
41,-23.693697000000004,-189.49957311878714,0.0008128843706183666,0.03746433798907258
42,-24.86771333333333,-188.18902281878715,0.0052086856627495525,0.03704407623345931
43,-26.065621000000004,-186.89312451878718,0.009494745704861899,0.03666285948601037
44,-27.29134066666667,-185.61190341878714,0.01406314361490377,0.03598871967368291
45,-28.545514999999998,-184.34511035212049,0.013775670981841409,0.03556285195780892
46,-29.825708000000002,-183.09114031878715,0.00991224984552211,0.035662981661250995
47,-31.131214999999997,-181.85062411878715,0.0067074951360406995,0.03580169487844925
48,-32.46971133333333,-180.62284165212048,0.0058087990439741185,0.03581784657130049
49,-33.83300966666667,-179.4071595854538,0.0057626714580415956,0.036272104176121915
50,-35.224877,-178.2031802854538,0.004927736701567934,0.03569097690262307
51,-36.641725,-177.0112183521205,0.009956459611734001,0.035439548577300375
52,-38.08419733333333,-175.82989098545383,0.013960933290201425,0.03547035724691423
53,-39.552885999999994,-174.65980331878717,0.016726750521246586,0.0349268832088006
54,-41.047564666666666,-173.50044245212047,0.010805748207937083,0.03454260104411806
55,-42.571450000000006,-172.35058148545383,0.007733167203677002,0.034495647265182394
56,-44.122449666666675,-171.2105724521205,0.003021452023995783,0.034499903457462296
57,-45.703904,-170.0799788521205,0.006617795629964221,0.03494435372852861
58,-47.313517,-168.95959378545385,0.008285460940708629,0.03518477613207779
59,-48.949350333333335,-167.84798201878715,0.006156838582693721,0.03532514515426517
60,-50.61089533333334,-166.74512898545382,0.0080893882545768,0.03509238569494619
61,-52.29786566666667,-165.6506616854538,0.010577512955950363,0.03525605292662065
62,-54.00991199999999,-164.5643916521205,0.006020932070705051,0.03517440804923248
63,-55.746186,-163.48656398545384,0.004778980958320744,0.0349131865882258
64,-57.513329999999996,-162.4167311521205,0.007474736717767563,0.03487287218689539
65,-59.302006,-161.35413058545382,0.007350749009456672,0.03466515346863393
66,-61.12210100000001,-160.2991840521205,0.004857859199276701,0.034394604738002675
67,-62.96915333333333,-159.25124721878714,0.007944781326965168,0.03353670824319683
68,-64.84173766666667,-158.2102287854538,0.0041313287612224255,0.03357846928753268
69,-66.73911,-157.17629808545385,0.005199337361624707,0.03368882473023249
70,-68.66380166666667,-156.14868301878715,0.0041442259027879335,0.033572041799533846
71,-70.61435966666666,-155.12783845212053,0.005883884459548031,0.0335644793986714
72,-72.58465833333334,-154.11344371878718,0.007753325050147554,0.03348349542549263
73,-74.57677466666667,-153.10473038545382,0.005852145617910709,0.03363860557786698
74,-76.599848,-152.10141918545384,0.016446575357812215,0.03315436586717281
75,-78.65042533333333,-151.10453525212048,0.017293488784312694,0.03279442706045976
76,-80.727467,-150.11367321878714,0.010035887155600732,0.0326346889081184
77,-82.82482866666668,-149.12852735212047,0.006297110157310964,0.03305172602488744
78,-84.954849,-148.1487208854538,0.006899616511080049,0.03223212875070872
79,-87.11017499999998,-147.17473788545382,0.006336583622106773,0.03227216848962783
80,-89.28944466666667,-146.20519958545384,0.010939181246016201,0.03216091945721975
81,-91.49314399999999,-145.24161385212048,0.013173310555821726,0.03219095720016491
82,-93.722107,-144.28229658545382,0.012572288932409428,0.03203096571138115
83,-95.97774399999999,-143.32737211878717,0.009772433269153474,0.0320159036075686
84,-98.25980433333332,-142.3777616854538,0.009069909058712284,0.031737556618032764
85,-100.55813666666666,-141.43273761878714,0.0167161369141674,0.03220227913718675
86,-102.88319,-140.4924908854538,0.026150854670540114,0.031923037329876044
87,-105.23023666666666,-139.55645988545382,0.013600582095382958,0.030743399446434023
88,-107.60429333333333,-138.62499001878714,0.00930275407250136,0.030251265300983387
89,-110.00755333333332,-137.6975597521205,0.002145048561997598,0.030129717632988506
90,-112.43210333333332,-136.77435718545382,0.005592408544916067,0.03084947865642011
91,-114.89076666666666,-135.8551974521205,0.015999169770137784,0.030732626022580933
92,-117.37540333333334,-134.9402036521205,0.017814781315904176,0.03075831250026797
93,-119.86673666666667,-134.02873321878715,0.021444361341232905,0.030136504695290788
94,-122.39995,-133.12156235212046,0.012500431992538124,0.02994481885506905
95,-124.95814999999999,-132.21825638545383,0.01289202466643596,0.029801753505847562
96,-127.53343666666666,-131.31800431878716,0.011105522650165277,0.02903537387602124
97,-130.14287333333334,-130.42250035212047,0.01260706283530296,0.02825282511082699
98,-132.77141333333336,-129.53005248545384,0.023268288147909304,0.028356657764687546
99,-135.42667666666668,-128.64080688545383,0.01618706376504635,0.028191621045521136
100,-138.10623666666666,-127.75434331878715,0.019584601944717072,0.028842900131056313
101,-140.80766333333335,-126.8714863854538,0.027691139978954123,0.028809938296078363
102,-143.52838333333332,-125.99165515212049,0.02692486273563982,0.029011575062434018
103,-146.26886666666667,-125.11466281878715,0.015870716219924547,0.029731435455924656
104,-149.03344333333334,-124.24143178545381,0.014489293748594218,0.02997875368429538
105,-151.83318666666665,-123.37098591878714,0.01606152649449811,0.02960813049433909
106,-154.65535666666665,-122.50378631878715,0.019393321874646884,0.029379605094519638
107,-157.51926666666668,-121.63913515212049,0.012001226326225453,0.029061357570720994
108,-160.38906333333333,-120.7776231521205,0.012818667377434347,0.028509585735378224
109,-163.28131333333332,-119.91917615212049,0.016106959158487512,0.02787066220263806
110,-166.19826,-119.06312835212049,0.012305011174331009,0.027913801467078555
111,-169.14073666666664,-118.20948941878716,0.022173345109247764,0.027867129588993945
112,-172.10721666666666,-117.35917655212047,0.02332420702474186,0.02740582578746521
113,-175.09370333333334,-116.51087668545382,0.028374305865217494,0.027271306870109008
114,-178.10550666666666,-115.66575508545382,0.024018812071648958,0.027293623489082708
115,-181.13429333333332,-114.82298618545381,0.026614631940595972,0.02776372137112179
116,-184.1920266666667,-113.9825264521205,0.027395091409494365,0.028010239553113523
117,-187.29081,-113.14474651878716,0.019897158088542383,0.02737064569587942
118,-190.39387666666667,-112.30991571878717,0.023466915718374726,0.027649200298022165
119,-193.52650000000003,-111.47714955212048,0.02056565826807747,0.02757950684011176
120,-196.68088,-110.64589405212048,0.015387290209770341,0.027523310898462848
121,-199.85521000000003,-109.8178180521205,0.02137147397818157,0.02701333367364035
122,-203.05866666666665,-108.99177288545383,0.02050822842990052,0.02677857422872296
123,-206.29265666666666,-108.16791721878714,0.018448187806214468,0.027647088326979857
124,-209.54441333333332,-107.34682765212047,0.015884723269019737,0.028630755034629737
125,-212.81890666666666,-106.5273433521205,0.007735433622839768,0.027664194433652447
126,-216.10924666666665,-105.70979765212047,0.02006563563244715,0.02740478299864587
127,-219.43089666666665,-104.89550841878714,0.022222093360715563,0.027530132356927386
128,-222.76181666666665,-104.0823922521205,0.03267867245366819,0.02773633573804774
129,-226.13334666666665,-103.27115411878715,0.03021546844471609,0.027265957179057373
130,-229.52246333333332,-102.4626398521205,0.028907743483942077,0.027040834366256563
131,-232.94295666666665,-101.65579088545383,0.02100167691717479,0.026736263099828038
132,-236.3820466666667,-100.85134018545381,0.018250066666569843,0.02687798151355666
133,-239.84434,-100.04856988545383,0.02459879468590368,0.027290940538078637
134,-243.32883333333334,-99.24771927545383,0.03690660419673821,0.027552899603367504
135,-246.85035000000002,-98.44916205878714,0.03448297115967518,0.027558624949316397
136,-250.39008666666666,-97.65182210212049,0.04480553574429859,0.026879881285308257
137,-253.94974000000002,-96.85675369212048,0.03182414335061807,0.026711278000874784
138,-257.54113333333333,-96.06358094878716,0.02031562042700237,0.02696864415235279
139,-261.13394666666665,-95.2721831321205,0.008541998204957543,0.02672998438157751
140,-264.7654866666667,-94.48366402545382,0.007085861509635817,0.026655970665039906
141,-268.42964666666666,-93.69592044545381,0.008785171218186293,0.02647713381456804
142,-272.1103233333333,-92.90975386545382,0.018341745645750248,0.026465868592929234
143,-275.8069233333333,-92.12643650878715,0.016109513752203666,0.025856271534056244
144,-279.52583,-91.34483440878716,0.036623870631037295,0.025197926222552285
145,-283.27683,-90.56503076212049,0.03377712687605121,0.025139039620605222
146,-287.0424233333333,-89.78631450545383,0.03833708561345039,0.025035005607702308
147,-290.8314266666667,-89.00979918212049,0.030297743040286505,0.024824188144251417
148,-294.6532466666667,-88.23578640545382,0.02435281161039936,0.02535792437762324
149,-298.5016366666667,-87.46254829545381,0.02991417278372159,0.025326156567573137
150,-302.35895,-86.69109568212048,0.04774763135483494,0.02532957571543944
151,-306.23602,-85.92223340545382,0.05336712564865353,0.024963625034558273
152,-310.15004999999996,-85.15462615545381,0.049691273881829624,0.02455077604514544
153,-314.07249333333334,-84.38885649212048,0.051972335269200795,0.024932717686738572
154,-318.02847333333335,-83.62546440545383,0.038490427814367255,0.024749004096703362
155,-322.0194333333333,-82.86337824545382,0.015214076815002033,0.0249951822549547
156,-326.02056,-82.10283315212048,0.008442398948145113,0.02456068875386924
157,-330.0495133333333,-81.34342983545382,0.026578565298648528,0.02412685372337543
158,-334.0837833333333,-80.58616924212048,0.004747128956859819,0.02424989124496226
159,-338.1422,-79.83060499878714,0.017518949740220936,0.024309572565392696
160,-342.24861000000004,-79.07643743878715,0.03604691248914372,0.024172790619544166
161,-346.3561966666666,-78.32500676545382,0.03325234477948919,0.023005981745846536
162,-350.51787999999993,-77.57508916878714,0.03372980432792769,0.023098148648386687
163,-354.68903,-76.82656249545381,0.0183987282169549,0.023245025457864023
164,-358.8861766666667,-76.07923638212048,0.019645346353107957,0.023727210528994708
165,-363.09051,-75.33412281212048,0.026418637360785768,0.023699195706443292
166,-367.31593000000004,-74.59090623545382,0.03770823119692742,0.023870279414877144
167,-371.58887999999996,-73.84973276212048,0.05947684507436506,0.023217643773763605
168,-375.86254333333335,-73.11062454545383,0.05357337616139414,0.02254547086374218
169,-380.16903,-72.37272327212048,0.056439811303711444,0.02201399189443619
170,-384.4903133333333,-71.63635873878715,0.07045125714516065,0.021675086125572843
171,-388.82666333333333,-70.90322175545383,0.06536339214985729,0.019767889681985555
172,-393.19346,-70.17055354878715,0.02993414939494791,0.018755777745189335
173,-397.58939333333336,-69.44010253212049,0.03290457161755818,0.01962024607283834
174,-402.02557666666667,-68.71160407878716,0.039665781642809,0.018794092135470123
175,-406.46639666666664,-67.98475694212048,0.040569427323235235,0.017671657632350422
176,-410.94558333333333,-67.26077506212049,0.022180131499456298,0.016950020694526845
177,-415.44337,-66.53696262545382,0.01841090980912437,0.01703304268782575
178,-419.9767033333333,-65.81520576545381,0.017453206964175634,0.01673534343081015
179,-424.5284766666666,-65.09567921545381,0.016958137672907214,0.016761264148341545
180,-429.1113566666666,-64.37837254878714,0.006828047549162947,0.015990509601634582
181,-433.69359000000003,-63.66236002878715,0.010570964951208869,0.015375375443225885
182,-438.30992,-62.94889639878714,0.015684552910436182,0.015545363568336048
183,-442.951,-62.23743419878714,0.030437746302868884,0.015748438822751527
184,-447.63836666666674,-61.526872082120484,0.02175471519774385,0.016604097820650664
185,-452.3198833333334,-60.81924713878714,0.03831658953161473,0.017270319687025845
186,-457.03352666666666,-60.11386704878714,0.033476559460854816,0.01773027079991472
187,-461.7850733333333,-59.40964986878714,0.0204951709759779,0.01680271074741761
188,-466.54384,-58.707074958787146,0.021662218261257273,0.015753488188068713
189,-471.30979666666667,-58.00791455212048,0.031186731687275607,0.01528264772977703
190,-476.1088733333333,-57.31086892545382,0.03590243770737315,0.014504207646630435
191,-480.95205333333337,-56.61531500212047,0.05562411827016712,0.015787917386310506
192,-485.80865,-55.921449182120476,0.05768224076783406,0.015805697213534673
193,-490.68826000000007,-55.230150042120485,0.04461462988751688,0.016225759083192803
194,-495.59210333333334,-54.541229498787146,0.04589344433940368,0.016993560234214358
195,-500.5142466666666,-53.85458827878715,0.05102110576351414,0.016871183899630868
196,-505.48599999999993,-53.17043477212049,0.062474389152639774,0.0170825468950985
197,-510.47602666666666,-52.48755288878714,0.07824474188933463,0.018969057451744143
198,-515.4642533333334,-51.80754733212048,0.08429306278304173,0.01861407775538755
199,-520.4864566666666,-51.130201668787144,0.059226837103926865,0.018192973049647104
200,-525.5225866666667,-50.45470968212048,0.042459271464943514,0.017795017079546647
201,-530.6141333333334,-49.78254491545381,0.03251036962774054,0.019043463492164462
202,-535.7295833333334,-49.111854648787144,0.055088861245574765,0.01841681370694406
203,-540.8494333333333,-48.444108882120474,0.05300131350569474,0.0181423442363666
204,-545.9703,-47.778953838787146,0.02821893690408781,0.018664554829834198
205,-551.1593333333334,-47.11633718878715,0.043398802210874575,0.017702603619074702
206,-556.3718333333333,-46.455425152120476,0.029678951014711238,0.017961481002198337
207,-561.63223,-45.79711376878714,0.017670053763406298,0.017570718498353625
208,-566.8751866666667,-45.14030514212048,0.01664384971492969,0.016733352352216666
209,-572.1716066666667,-44.48760017212048,0.018712616955737477,0.016533852285848565
210,-577.48042,-43.83745744878715,0.007875753932140024,0.016730046858029902
211,-582.8298799999999,-43.19040000545382,0.03949304115924507,0.01657838075747383
212,-588.1598866666667,-42.54621266212048,0.061912357678675124,0.01660141892819066
213,-593.5277366666668,-41.904155638787145,0.080069834727748,0.016326470441423116
214,-598.9316966666667,-41.264741398787145,0.06614600088686194,0.016185197207512766
215,-604.34875,-40.62824035878714,0.04416027513502175,0.01569526958770752
216,-609.8002600000001,-39.995467465453814,0.04187777572884674,0.016975917155473308
217,-615.2726733333334,-39.365400095453815,0.0554871447574184,0.017650689551436505
218,-620.8071,-38.739143722120474,0.047709336612414756,0.018320173132288457
219,-626.3364966666667,-38.114212305453805,0.04387642001506174,0.018560288493335218
220,-631.8756133333333,-37.49342101212048,0.05276098684948787,0.01714649074814342
221,-637.4692100000001,-36.87595301545382,0.08090463274742318,0.0167993105363404
222,-643.0627633333334,-36.260274702120476,0.07613546895712496,0.016598176871515966
223,-648.7173166666666,-35.64847140545381,0.04717310709866667,0.017516051321924204
224,-654.3946166666666,-35.04071749545381,0.0602910327771434,0.016608529557741065
225,-660.0778433333334,-34.436657925453815,0.0653163121534761,0.01771742461830905
226,-665.7937266666667,-33.834678458787145,0.06937086876589744,0.016824459107316503
227,-671.5194066666667,-33.23630136545381,0.06458831963547672,0.016734108691242384
228,-677.2758666666667,-32.64177756212048,0.0894494099104295,0.016805758586372514
229,-683.0370333333334,-32.05104497878715,0.07380963103366531,0.016889516658471986
230,-688.8305733333333,-31.465506255453814,0.07845293196135926,0.017584674559661416
231,-694.6643799999998,-30.882852255453813,0.04964941993624428,0.018091900638552604
232,-700.5367033333333,-30.303567178787148,0.02849857774228551,0.018665363461416538
233,-706.4523833333333,-29.72688108878715,0.050987071237105296,0.019312801546742864
234,-712.3747233333333,-29.15486830878715,0.03709313728083957,0.021180440003519225
235,-718.33929,-28.587030942120478,0.05405681825637083,0.022264374971295645
236,-724.2964499999999,-28.021545028787145,0.06685611116420315,0.022625648517783377
237,-730.2815866666666,-27.460239168787147,0.09973722992601608,0.02231911621833522
238,-736.3096166666668,-26.903967635453817,0.08972259767379138,0.022074474380198408
239,-742.32479,-26.351850005453812,0.06521468929620977,0.02245671661953833
240,-748.3973499999998,-25.804308325453817,0.052650744534190407,0.021538621748873513
241,-754.4956166666667,-25.260049708787147,0.06037885419031078,0.022364178542051603
