N,energy,lnPI,energystd,lnPIstd
0,-7.1351931e-10,-71.32505424333333,2.685957697776592e-10,0.034186736580320815
1,-0.0006057407099999999,-67.98929776,2.7073972739601545e-10,0.034511643428002045
2,-0.03348895766666666,-65.33204808333333,3.184584014174213e-05,0.034978366377655244
3,-0.09877146333333332,-63.06491684666667,8.595789057633615e-05,0.03488115223891876
4,-0.19639919666666664,-61.07052269666667,0.00010395307322698169,0.035333934279135344
5,-0.3261313433333333,-59.28453321333333,0.00014277683717374613,0.03560991934794296
6,-0.48836550333333334,-57.66614815333333,0.00010924642068885672,0.035392340879592143
7,-0.6830146899999999,-56.18713669666666,0.0001596959489154171,0.03504623237258318
8,-0.9097464733333332,-54.82675644,0.0003043419401484325,0.034651680851059644
9,-1.1686916666666667,-53.56940475,8.876853797006684e-05,0.034891280570556585
10,-1.459672066666667,-52.40272602666667,0.00029201952560279027,0.03487249335341
11,-1.7830026333333333,-51.31661769000001,0.000918564806278274,0.034459265800303694
12,-2.1387004,-50.302971363333334,0.0011864176878318984,0.034544494236698114
13,-2.5262583333333337,-49.354928256666675,0.0009320547641278981,0.03483599754242695
14,-2.946369766666667,-48.46708276333334,0.00025007559523708,0.03461389905385677
15,-3.3988701666666663,-47.63355847333333,0.00024036158872282263,0.03436987834400786
16,-3.883829166666666,-46.850025136666666,0.0011004365785151871,0.03415120983746691
17,-4.4006495333333335,-46.112590446666665,0.0005773840691721938,0.0342454484150905
18,-4.949091833333333,-45.417689063333334,0.00022758388197136642,0.03445795442870691
19,-5.529555366666667,-44.76245601666667,0.0006358120896402859,0.03410313782443581
20,-6.1418071,-44.14422498333334,0.0006459775460493394,0.03397904418708684
21,-6.78545,-43.56054786666667,0.0016912454257142784,0.03370981469392283
22,-7.4602398,-43.00927402666667,0.0015913485067700413,0.03382111551833207
23,-8.1675112,-42.48819049666667,0.002775807630221639,0.033484458635662566
24,-8.906970833333334,-41.99555016666667,0.0031589652963168987,0.032996399533128586
25,-9.678917433333334,-41.52961535,0.0029872180324396853,0.03269099106332098
26,-10.482291,-41.088350436666666,0.0026798449582020015,0.03275283782687268
27,-11.318622,-40.67066131666667,0.00286140053120822,0.03250349673718322
28,-12.185771666666668,-40.27588848333333,0.0036619156644211526,0.0321469692499445
29,-13.084190000000001,-39.902396493333335,0.0007886425045616415,0.03202117757116006
30,-14.015397,-39.54874395666667,0.0018350103541939669,0.03220018027168967
31,-14.978877333333335,-39.213844576666666,0.0036021457956797215,0.03183388400342242
32,-15.973219666666667,-38.89674453666667,0.003295507447014579,0.03181074466158854
33,-16.998580666666665,-38.59660767333333,0.005727749063404377,0.03248416673611653
34,-18.055522,-38.31286013,0.006961742310657025,0.03228941992495712
35,-19.146304666666666,-38.044047909999996,0.008194399693283899,0.032108059663189546
36,-20.264596666666666,-37.7902902,0.00888710730965553,0.031893487143598805
37,-21.418136333333337,-37.54997463333333,0.00784477038117363,0.03165850486117259
38,-22.601107,-37.32255628666666,0.004251257578648743,0.03183778892359585
39,-23.816580000000002,-37.10744333,0.004805039333867137,0.03164340232067547
40,-25.064298333333337,-36.904364613333335,0.0044802033807996855,0.03134292294153122
41,-26.34072766666667,-36.71242796666667,0.005023623625764265,0.03159530777210212
42,-27.648189666666667,-36.53102533333333,0.004717545159646766,0.03215075798472645
43,-28.987813999999997,-36.35916255,0.0031764151177075786,0.032107240140427235
44,-30.357571000000004,-36.19719229,0.002136669370772166,0.0321409646885912
45,-31.754681666666666,-36.044638676666665,0.003421558757841395,0.032390642253428276
46,-33.18468633333333,-35.901001476666664,0.002532076289009192,0.0318594859355085
47,-34.64728,-35.765089769999996,0.004547545821646954,0.031903412846022536
48,-36.139697000000005,-35.63684948666667,0.004596878506116723,0.03212629268411074
49,-37.66170733333333,-35.51608834333334,0.002241836152201589,0.03189569082746249
50,-39.216530666666664,-35.40291456333333,0.002289389074261599,0.03155645196432288
51,-40.802914333333334,-35.29646667666667,0.002201160678674217,0.031413969919637186
52,-42.41816666666667,-35.19598057666667,0.00937074646617669,0.03143827907935293
53,-44.061854333333336,-35.10162562666667,0.008128878909995398,0.03168502342344744
54,-45.73823166666667,-35.013276600000005,0.008567449231443067,0.0317592524936714
55,-47.446549000000005,-34.93006786666667,0.008415604315794944,0.0315829876224308
56,-49.183132666666666,-34.852248403333334,0.009011726379185616,0.03187174662884268
57,-50.94946766666666,-34.77912219333333,0.006745885140836055,0.031647067396291424
58,-52.742878,-34.710360466666664,0.005406290317765643,0.03169119794481576
59,-54.567099000000006,-34.64584483,0.00456274358253717,0.031531676478104176
60,-56.42183433333333,-34.58583219,0.006325374639756147,0.03183118026456876
61,-58.30421033333334,-34.529912646666666,0.002916027663328418,0.03211063847808384
62,-60.221463,-34.47756312333333,0.005115652157838682,0.03195453394427325
63,-62.164208333333335,-34.42861288333334,0.005926380879874589,0.03170538759591965
64,-64.13750466666666,-34.382532993333335,0.00680217114848663,0.031675046283231284
65,-66.13783366666665,-34.339847866666666,0.008931583584864084,0.03150437979788184
66,-68.16487099999999,-34.30020210000001,0.008119364691891796,0.031259200384640286
67,-70.22166933333334,-34.262473166666666,0.005224124456138794,0.03132560132424685
68,-72.313586,-34.22762108,0.005546370254493316,0.03082552634145085
69,-74.43325533333334,-34.19533146333333,0.005719691804047264,0.031191612473467065
70,-76.58222500000001,-34.16533663,0.006322144968286971,0.03127633484083312
71,-78.74948933333333,-34.137159403333335,0.007680347279480835,0.031110285787825244
72,-80.95627,-34.11089360333333,0.006303249003491344,0.03045978357346827
73,-83.18189666666666,-34.08663832333334,0.0049037684828404276,0.029939124250344947
74,-85.43699866666667,-34.063590536666666,0.006415180615792587,0.02995700474128215
75,-87.72052066666667,-34.0424155,0.011545190225089439,0.03030819262417698
76,-90.02805533333333,-34.021908249999996,0.008433366251584246,0.030630704121361138
77,-92.372778,-34.00318164,0.008171813568612182,0.03026138154115398
78,-94.74026133333335,-33.98533977,0.004087726792888692,0.029985054638890517
79,-97.13467933333334,-33.96871452333334,0.007778675358517132,0.029961478230490127
80,-99.55224499999998,-33.95262878333333,0.012827079051760344,0.02988537940673323
81,-102.00260666666668,-33.937298176666665,0.011379087543968472,0.02922975137395973
82,-104.48673666666667,-33.92247288000001,0.008426875656694564,0.029082851787655413
83,-106.99508666666667,-33.90815518666667,0.005615169929154635,0.028528910081839585
84,-109.53156,-33.89447266666667,0.006016734995000772,0.028259454888174548
85,-112.08551999999999,-33.88134155,0.011492275666734497,0.0280394569630248
86,-114.67129666666666,-33.8681147,0.016356944498691326,0.02834846758411437
87,-117.28004333333335,-33.854962136666664,0.011272853823831324,0.027738077415290042
88,-119.91808333333331,-33.84181104333334,0.015846174091353818,0.027237418975593255
89,-122.58950333333333,-33.82827294333333,0.021042721623709345,0.026877527944432874
90,-125.2823,-33.815122980000005,0.0175996846562651,0.026719954682966552
91,-127.99716999999998,-33.80217222666667,0.02664238915712627,0.026722405752627826
92,-130.74216,-33.78864449666667,0.025234561616946063,0.026827802890764668
93,-133.50941666666665,-33.774861963333336,0.023930851078339078,0.027058632879297915
94,-136.30012333333335,-33.76050046666666,0.02232325319780579,0.027560035332262128
95,-139.11417666666668,-33.74581475333334,0.023617333323928534,0.027793360113138273
96,-141.95742333333337,-33.73065774,0.026400864253547512,0.027766180674432525
97,-144.82332333333332,-33.71482019333334,0.026260823165571823,0.027858384399738912
98,-147.72471,-33.69810945333334,0.03319916264001846,0.028542524642850536
99,-150.64959333333334,-33.681136073333334,0.033493516287978455,0.028937575081107857
100,-153.59378666666666,-33.66327956,0.031886242069799876,0.028921268160126124
101,-156.55529666666666,-33.64499788,0.029819638383680923,0.02857434105075908
102,-159.55541333333335,-33.62530106333333,0.0335461552690086,0.028836127104734353
103,-162.57450333333335,-33.60526898333333,0.0345011598838962,0.028590922642377656
104,-165.61398,-33.58435709,0.028244233039683552,0.029104937078541424
105,-168.69030333333333,-33.561860810000006,0.01770675671411786,0.029185960915516757
106,-171.77826333333334,-33.538697836666664,0.009176504417992254,0.028357436661811546
107,-174.89540333333332,-33.51450721333333,0.005520917798090908,0.02834190594181432
108,-178.03103,-33.48884826,0.010761129122896161,0.028073141691398955
109,-181.19823333333332,-33.462255723333335,0.005720579807457468,0.02782480567615982
110,-184.37882333333334,-33.434869193333334,0.011537427500675148,0.02837026346312963
111,-187.58719333333332,-33.405526726666665,0.012615582956528263,0.027886771244943074
112,-190.82711000000003,-33.37502771333333,0.024963565450462483,0.02788734171787069
113,-194.08383333333336,-33.34304535666667,0.02739678874125945,0.028090706834839645
114,-197.36063,-33.30999160666667,0.0102108373799768,0.0278726245683523
115,-200.6621133333333,-33.27580173333334,0.014282984048644642,0.027590283155217166
116,-203.97833,-33.24012438333333,0.02160266881660152,0.026946839576060307
117,-207.31778666666665,-33.20282357666667,0.02363980188861034,0.026524717187824808
118,-210.68415000000002,-33.16387204666666,0.027697487250636116,0.026838920550682998
119,-214.07102999999998,-33.12329768666667,0.03150116823234487,0.02635820190811465
120,-217.47505999999998,-33.08216135666667,0.028159140611900595,0.02636991413352938
121,-220.90780333333336,-33.03898067666666,0.024473386225301787,0.02641004468850891
122,-224.36262666666667,-32.994217170000006,0.03234595544010155,0.026460715496794882
123,-227.85191666666665,-32.94814303333333,0.03026325219358963,0.026462919059230875
124,-231.34977333333336,-32.90017542333333,0.03287272628385913,0.026801461861515632
125,-234.86302999999998,-32.85062478333334,0.04456496830471451,0.02713562507641788
126,-238.41116,-32.79896759333334,0.0442525355205933,0.02735596904356391
127,-241.98404666666667,-32.745771940000004,0.040999600404584766,0.026842718046414905
128,-245.5856,-32.69135684333333,0.044866425086030066,0.026623349898641093
129,-249.18170333333333,-32.63539726666667,0.04614502609528898,0.025684210866038937
130,-252.81215666666665,-32.57725158666667,0.04919841901252146,0.025294084576032373
131,-256.4726633333333,-32.51738402,0.047717708802198874,0.02533361873407865
132,-260.14715,-32.45611546666667,0.046175884398682435,0.025951866324258922
133,-263.84529,-32.392557296666666,0.05370023556745949,0.026055965797372294
134,-267.5644766666667,-32.32732344666667,0.048925374125656514,0.026143273336440453
135,-271.2993133333333,-32.26050876,0.038404234575547716,0.026135182211315777
136,-275.0592266666667,-32.19223652333333,0.03614465013432179,0.02629402791421688
137,-278.85753666666665,-32.12189558,0.022698657082169203,0.026018530586465433
138,-282.6707966666667,-32.04964532666667,0.018093408560392092,0.02606094586593771
139,-286.4973466666667,-31.97569347,0.01681000099147285,0.02597133804391975
140,-290.34468666666663,-31.89962127,0.025167441930699357,0.02592484178377366
141,-294.2122366666667,-31.821482433333333,0.03430989993184896,0.02635528881994368
142,-298.11286,-31.741580146666667,0.035725029041271054,0.027021532211732594
143,-302.03054333333336,-31.66034349,0.05234566776089234,0.027009067081699062
144,-305.96551,-31.57699252666667,0.06128252360990798,0.027239202650005893
145,-309.91778,-31.491626893333336,0.07917364397322578,0.02708432826471231
146,-313.88603666666666,-31.40396936,0.10054770277502262,0.027124736861524452
147,-317.87440999999995,-31.314204783333334,0.09833600408802727,0.02746208138845032
148,-321.88316333333336,-31.222448043333333,0.09194586795139237,0.027999360915864257
149,-325.91149,-31.129330766666666,0.0943955809347233,0.027558460482577065
150,-329.96335,-31.034127010000002,0.08030488092266425,0.027317163289500068
151,-334.03122333333334,-30.937572153333335,0.06429034945724732,0.026887004393222693
152,-338.13624666666664,-30.838876879999997,0.060547743420660514,0.026622333358081132
153,-342.26664666666665,-30.73795402,0.06125400095776126,0.02637711252372306
154,-346.41406,-30.634410473333332,0.051857793049804174,0.026421112751753382
155,-350.57657666666665,-30.529203963333334,0.040226951578929235,0.02585118111844336
156,-354.7612266666667,-30.422090793333336,0.03682798709315978,0.025294597736979924
157,-358.94400666666667,-30.313646430000002,0.01746502886722053,0.024946492799134034
158,-363.1756633333334,-30.20267644333333,0.02196730600990082,0.023989705913170054
159,-367.4091633333333,-30.089278210000003,0.02794040324210684,0.023435068178121566
160,-371.67419666666666,-29.973931273333335,0.019059843476075245,0.023305445212541506
161,-375.95327,-29.857453369999998,0.011579900690443332,0.02228035031715108
162,-380.25540666666666,-29.73903384333333,0.0070986219319601135,0.021366647136016086
163,-384.5853233333333,-29.618134053333335,0.013396762046610644,0.021003632247562156
164,-388.94023666666664,-29.495533153333337,0.014854057806949336,0.020727900731585366
165,-393.31193333333334,-29.37031659333333,0.016261526168623575,0.021097281924343698
166,-397.68816999999996,-29.24302994,0.016239418093022255,0.021570095013045635
167,-402.09367000000003,-29.113556853333336,0.033362663263015936,0.02186630625979759
168,-406.5258833333333,-28.982638403333336,0.041862417910730226,0.021761787589564964
169,-410.97268333333335,-28.850074109999998,0.03987585777553306,0.02170506413363171
170,-415.44469000000004,-28.714631726666667,0.04874986871776065,0.02125711468455878
171,-419.94056,-28.577714893333333,0.04900845131198896,0.0209170981410017
172,-424.43066,-28.43865603,0.06530799568199919,0.020671375931056956
173,-428.94561,-28.29821568,0.05400126942951015,0.020414706913444436
174,-433.48812999999996,-28.15626064,0.05546945916449298,0.021247948930090688
175,-438.0425033333333,-28.011419560000004,0.04890830842842931,0.021344079657452192
176,-442.63079999999997,-27.865423699999997,0.06454519889195044,0.021586906892623683
177,-447.2457533333333,-27.717586396666665,0.0623351877621081,0.02162243421284669
178,-451.8827833333334,-27.56714583,0.07180474728968075,0.02128858282714265
179,-456.53878000000003,-27.414483003333334,0.07305327371171648,0.021618337396725033
180,-461.21332666666666,-27.26043909666667,0.05571753254889163,0.0221496298103677
181,-465.91528333333326,-27.104142456666665,0.058054080247106975,0.021793580028722823
182,-470.6282733333333,-26.9462157,0.061220841494865265,0.021188633295174238
183,-475.37689,-26.786829096666665,0.051131431624763475,0.021573665406416528
184,-480.1283333333333,-26.625225783333335,0.06048368485248945,0.022155295388109796
185,-484.90778666666665,-26.46195027,0.07505489746401017,0.022006061899915247
186,-489.69534666666664,-26.297142776666664,0.04826906082920898,0.021895044556849867
187,-494.51478,-26.130079016666667,0.04707426154493773,0.02204016829834269
188,-499.3493133333333,-25.961313203333333,0.05605286463090457,0.021875859331682335
189,-504.21662999999995,-25.79089888,0.063965863552328,0.021755504282565542
190,-509.1175366666667,-25.61853986,0.05588230518988036,0.021987249606901682
191,-514.0076,-25.444264253333333,0.054379767377183995,0.022017623843586874
192,-518.93671,-25.268226639999998,0.0321073885577904,0.021008311389179468
193,-523.90287,-25.089752986666667,0.022660238304136736,0.02093257530367931
194,-528.86122,-24.910232683333334,0.015424341152910498,0.02130390206184913
195,-533.85519,-24.728848463333335,0.0327642045531886,0.021177912513409083
196,-538.8678533333333,-24.54659794666667,0.049222167093055096,0.020423516152028778
197,-543.8911833333333,-24.362294430000002,0.04797681245490131,0.020339991238377708
198,-548.9510099999999,-24.175955863333332,0.045806192812776834,0.019633998022167882
199,-554.0386766666667,-23.98753367333333,0.058369320994291464,0.01918020693717963
200,-559.1589333333333,-23.798243376666665,0.06381016324481681,0.019174881733204578
201,-564.2808866666667,-23.607097999999997,0.04393608122412207,0.02011360586239816
202,-569.4369766666666,-23.413366816666667,0.04221361194367012,0.02056302371944469
203,-574.6043766666667,-23.218585203333333,0.023010550478734744,0.020678981685423897
204,-579.81418,-23.022920996666667,0.010052149023973113,0.021436408859476723
205,-585.0414833333333,-22.82615258,0.011412152878926657,0.021783940937247965
206,-590.2934433333334,-22.626934846666668,0.017309316373958133,0.021489326240912036
207,-595.5754466666667,-22.424763913333333,0.03504480322863733,0.020733980032415784
208,-600.87775,-22.222355556666667,0.029417382616420663,0.02036216391785588
209,-606.18214,-22.018417643333333,0.031958336940439175,0.02029504489258947
210,-611.5175033333334,-21.813714603333334,0.021381614376288195,0.019928727277469
211,-616.8564133333333,-21.607035109999998,0.0077559031281730735,0.0201770541163087
212,-622.23976,-21.39956279333333,0.019509938492997002,0.020544829643831284
213,-627.6649666666666,-21.190431743333335,0.011501801308240982,0.021334800086831043
214,-633.0941499999999,-20.979654583333335,0.006495175132366694,0.020641312176229807
215,-638.5528666666668,-20.76807956,0.0188728279103275,0.02046419267219306
216,-644.0475700000001,-20.554758493333335,0.038723992562764466,0.02039975693130752
217,-649.54948,-20.340552016666667,0.018344702232523203,0.02026528333926416
218,-655.0825033333334,-20.12427435,0.027169667523473544,0.020233854780821032
219,-660.6380599999999,-19.907307526666667,0.0349259316267988,0.021006504069393476
220,-666.2056733333333,-19.68847811666667,0.022807455652324414,0.020081725015601324
221,-671.8298599999999,-19.46842167666667,0.046631286707548104,0.019422828011607055
222,-677.4797133333333,-19.24772873666667,0.0465116300868627,0.020186843441077667
223,-683.1331366666667,-19.026802680000003,0.08487426484713549,0.020146555030972412
224,-688.8147333333333,-18.804356793333337,0.07433610787054369,0.019510587464742542
225,-694.5108733333333,-18.581235156666665,0.08869972341180377,0.01952601447383866
226,-700.2378833333332,-18.356876106666665,0.05958647022047116,0.018377772531865236
227,-706.0002433333333,-18.13250196,0.0849746670092999,0.018597361748107756
228,-711.7841566666666,-17.905939070000002,0.0741770546283371,0.01763509334075914
229,-717.5927466666666,-17.68013799,0.0754623120062195,0.016863031972310604
230,-723.4173100000002,-17.452241506666667,0.054122572924795435,0.017147517909441478
231,-729.2814966666666,-17.225054773333337,0.03419256693106554,0.016344310996227223
232,-735.18486,-16.99669676666667,0.03397545731847798,0.015918286554055423
233,-741.0802066666666,-16.768177393333332,0.04125748942109841,0.01686701606333732
234,-747.0261399999999,-16.53917501,0.06238490282106769,0.016825026982769442
235,-753.0225366666667,-16.309743183333335,0.06949555693225083,0.016469049871909464
236,-759.0435133333334,-16.079274936666668,0.06683634440430038,0.01637110215091644
237,-765.0819466666667,-15.849137520000001,0.049878903690153804,0.015352675775694097
238,-771.1455633333334,-15.617365346666668,0.039640840472100355,0.016103659007393495
239,-777.2293999999998,-15.38602277666667,0.022391132173210395,0.014535375164749412
240,-783.3369366666666,-15.153802933333333,0.031278299719270534,0.013607932642949277
241,-789.49358,-14.921919026666666,0.027913788707422987,0.013988391074574037
242,-795.6606,-14.689258843333333,0.05497475511537802,0.01462124193107221
243,-801.8513366666666,-14.457230776666668,0.08609181397397829,0.014745758320460307
244,-808.09938,-14.225311839999998,0.0764775287258216,0.015515725068371539
245,-814.3550066666667,-13.99168634,0.09074657477466894,0.015987404251310837
246,-820.6114566666666,-13.759021070000001,0.08359825496589524,0.016156919658854945
